Wavelength (nm);FXN;ACO2;FXN:ACO2 2.5:1;Sum of FXN and ACO2 spectra;;;;
300;77.84557;118.59597;187.43397;197.84997;;;;
301;86.41359;136.08359;213.30259;223.99259;;;;
302;95.20548;153.78478;239.78178;250.61278;;;;
303;102.78085;171.62585;266.33785;276.00285;;;;
304;111.86115;190.89815;292.19015;304.49315;;;;
305;120.75827;210.98027;321.93727;333.50827;;;;
306;131.69695;230.77895;349.67395;364.25695;;;;
307;142.7035;251.0935;381.3265;395.6785;;;;
308;155.06172;273.55972;412.62972;430.54972;;;;
309;166.86733;294.09633;447.04133;462.99233;;;;
310;181.14919;316.47519;481.92819;499.87319;;;;
311;194.25518;337.82418;516.83518;534.67418;;;;
312;207.98437;359.94837;554.32237;570.94537;;;;
313;222.32709;382.46309;588.87509;608.39809;;;;
314;234.96883;405.84483;621.02683;645.35883;;;;
315;245.97841;428.68141;654.32541;679.52941;;;;
316;257.02228;446.04228;685.11228;708.02628;;;;
317;268.82707;465.14407;713.12007;739.01507;;;;
318;278.61327;483.67627;740.27927;766.85427;;;;
319;287.29216;500.63416;766.89716;791.99116;;;;
320;296.85568;514.49168;789.72768;814.77168;;;;
321;307.09772;529.97272;813.47672;840.25672;;;;
322;316.13025;542.85525;834.60825;861.90825;;;;
323;325.69936;553.11236;853.24436;881.69436;;;;
324;333.48501;564.46601;872.40601;900.78301;;;;
325;341.23734;573.91234;888.34134;917.95434;;;;
326;347.57796;582.40996;901.29496;932.94096;;;;
327;354.33515;586.03815;915.69315;943.21615;;;;
328;361.65527;594.88327;927.15627;959.60127;;;;
329;364.38684;597.62784;934.00684;964.89684;;;;
330;368.49634;599.48134;941.89534;970.88034;;;;
331;372.44405;601.74205;947.45905;977.12805;;;;
332;373.85105;602.58605;948.08505;979.47405;;;;
333;377.40451;600.27751;950.17851;980.69951;;;;
334;374.87872;596.20872;945.26972;974.08572;;;;
335;376.43198;594.56598;945.32298;973.99098;;;;
336;375.15157;591.60557;939.42057;969.67157;;;;
337;376.30678;584.93778;934.10278;964.24678;;;;
338;374.55397;580.20497;928.47397;957.68497;;;;
339;371.55997;573.84497;921.25497;948.28797;;;;
340;369.08574;567.27674;912.93074;939.19574;;;;
341;366.47007;561.83507;902.12207;931.23107;;;;
342;364.3045;551.8795;893.4165;919.0315;;;;
343;361.27819;543.63519;878.19519;907.69819;;;;
344;356.8689;534.8189;866.6069;894.3939;;;;
345;352.92729;525.03029;855.13229;880.77929;;;;
346;349.49351;514.83351;839.15351;867.01851;;;;
347;345.91017;505.67417;825.59817;854.20417;;;;
348;338.73541;495.87041;812.51241;837.17941;;;;
349;333.30016;484.98016;796.40716;820.93316;;;;
350;326.73997;474.65597;778.73497;803.89397;;;;
351;322.10103;462.24603;763.07503;786.80003;;;;
352;317.83053;452.17853;747.03553;772.47953;;;;
353;310.97554;442.04154;732.00454;755.44954;;;;
354;304.79939;432.13739;715.21839;739.23439;;;;
355;298.1046;421.0656;696.9716;721.4906;;;;
356;291.23913;409.08813;679.67413;702.65713;;;;
357;284.30096;396.51996;662.50796;683.11896;;;;
358;277.76226;385.73026;645.68626;665.52626;;;;
359;270.31894;374.59194;627.86894;647.08794;;;;
360;263.6796;363.9986;610.7676;629.7886;;;;
361;258.47999;353.31099;592.87499;613.75799;;;;
362;250.07193;342.66393;574.37393;594.79893;;;;
363;244.83118;330.98418;558.53118;577.75218;;;;
364;236.81474;321.24774;540.42674;559.95674;;;;
365;229.71576;310.62976;524.07176;542.27576;;;;
366;223.06629;297.82029;508.14729;522.70829;;;;
367;216.88028;287.69928;491.91428;506.40328;;;;
368;210.36682;277.22682;474.73382;489.34282;;;;
369;203.84353;266.87353;456.60253;472.36653;;;;
370;195.58272;257.12172;440.88672;454.46472;;;;
371;189.90476;248.45176;426.80576;440.01876;;;;
372;184.12103;238.99903;412.48803;424.71503;;;;
373;177.49894;228.23294;395.60894;407.32194;;;;
374;170.68449;220.64649;381.04049;392.89549;;;;
375;164.80399;211.89299;366.31299;378.20199;;;;
376;158.54824;203.15124;351.40324;363.16324;;;;
377;153.52771;195.03471;338.56371;350.16671;;;;
378;147.77828;187.39328;326.52228;336.49128;;;;
379;142.31799;179.94699;314.51999;323.64099;;;;
380;137.5465;172.2145;300.9875;311.1175;;;;
381;132.69807;165.04907;288.06107;299.00707;;;;
382;126.50637;158.15337;277.42337;285.88337;;;;
383;123.19202;151.60402;266.60302;275.98902;;;;
384;117.42346;144.54046;256.41046;263.21246;;;;
385;112.24839;139.05339;243.95539;252.43139;;;;
386;108.90831;132.48331;233.77531;242.54131;;;;
387;104.42955;127.65455;224.12655;233.17655;;;;
388;99.97714;120.92414;214.86614;221.96214;;;;
389;96.18245;116.35085;206.60685;213.59785;;;;
390;92.167763;111.465563;197.728563;204.599563;;;;
391;88.03269;106.37939;188.95539;195.44439;;;;
392;85.160048;100.958548;181.873548;187.082548;;;;
393;81.130423;97.021323;171.878023;179.102023;;;;
394;78.251498;91.730798;165.878798;170.937798;;;;
395;74.864472;88.015572;158.073372;163.824372;;;;
396;71.277238;83.733738;150.664238;155.982238;;;;
397;68.632516;80.354216;144.533716;149.895716;;;;
398;65.002894;76.606294;137.873494;142.472494;;;;
399;62.082885;71.923885;131.681985;134.918985;;;;
400;59.733305;69.271805;125.541605;129.815605;;;;
401;56.986495;65.128795;118.501895;122.974895;;;;
402;54.273286;62.284686;113.446086;117.351086;;;;
403;51.6992;59.0171;108.4619;111.4889;;;;
404;49.971258;56.449658;103.614758;107.226758;;;;
405;47.366441;52.933741;97.622241;101.084741;;;;
406;45.543333;51.195433;93.071033;97.504133;;;;
407;42.854026;48.323626;89.004526;91.973326;;;;
408;40.707779;45.785379;84.638779;87.311279;;;;
409;38.779513;43.819413;80.458613;83.339613;;;;
410;37.345421;41.872521;76.529821;79.946821;;;;
411;35.276478;38.990278;72.040078;74.981178;;;;
412;33.595051;37.236551;68.897751;71.527451;;;;
413;32.484454;35.028354;65.523454;68.205154;;;;
414;30.431216;33.878916;61.463316;64.993616;;;;
415;29.325787;32.217587;59.520487;62.228287;;;;
416;27.884232;30.411132;56.332532;58.979832;;;;
417;26.673133;29.055233;53.662533;56.401133;;;;
418;25.143847;27.805647;51.225647;53.556847;;;;
419;24.226653;25.678153;48.414753;50.504753;;;;
420;22.961537;25.142537;46.180337;48.764437;;;;
421;22.011061;23.877961;44.501561;46.501261;;;;
422;20.889533;22.646933;42.074733;44.153533;;;;
423;19.857;21.5507;39.3572;42.0291;;;;
424;19.148877;20.993477;38.412977;40.725777;;;;
425;18.195171;19.845471;35.974071;38.652171;;;;
426;17.244405;19.104105;34.078605;36.880805;;;;
427;16.483926;18.448626;32.695126;35.427326;;;;
428;15.612119;17.242619;31.017019;33.426419;;;;
429;14.977141;16.339741;29.635241;31.945041;;;;
430;13.924717;15.887617;27.839217;30.373417;;;;
431;13.784588;15.154888;26.766688;29.522788;;;;
432;12.959856;14.564256;25.419256;28.078456;;;;
433;12.187202;13.812902;24.083102;26.560102;;;;
434;11.853934;12.948234;22.817934;25.309934;;;;
435;11.206806;12.244706;21.550406;23.978906;;;;
436;10.694944;11.918244;20.866444;23.177944;;;;
437;9.936114;11.113914;19.772414;21.627714;;;;
438;9.758513;10.408113;18.952913;20.703013;;;;
439;8.89358;9.90265;17.67805;19.35575;;;;
440;8.842642;9.075392;16.927692;18.438792;;;;
441;8.506002;8.658262;16.370572;17.662072;;;;
442;8.075915;8.016845;15.568235;16.626235;;;;
443;7.484616;7.786746;14.455386;15.760586;;;;
444;7.339526;7.507346;13.898396;15.354096;;;;
445;6.846011;6.921161;13.194811;14.307111;;;;
446;6.937026;6.414616;12.400816;13.853216;;;;
447;6.464352;6.021332;11.787822;12.988722;;;;
448;5.885098;5.736508;11.303428;12.117028;;;;
449;5.775388;5.400888;10.775618;11.625418;;;;
450;5.224348;5.101368;10.145128;10.779028;;;;
451;5.377354;4.644524;9.680204;10.471904;;;;
452;4.988081;4.627691;8.824811;10.108811;;;;
453;4.754034;4.397524;8.541574;9.569094;;;;
454;4.491056;4.071966;8.123906;8.991046;;;;
455;4.249984;3.862264;7.408124;8.524414;;;;
456;4.053139;3.615699;7.132099;8.132289;;;;
457;3.570097;3.424757;6.811517;7.472587;;;;
458;3.361506;3.215056;6.426726;7.040356;;;;
459;3.413677;2.978427;6.127937;6.814527;;;;
460;3.117921;2.629711;5.689591;6.227541;;;;
461;3.091842;2.709652;5.200882;6.243282;;;;
462;2.887529;2.591069;5.240609;5.840389;;;;
463;2.729724;2.481594;4.869414;5.586394;;;;
464;2.606318;2.351888;4.489128;5.365868;;;;
465;2.649627;2.209277;4.448737;5.256447;;;;
466;2.463571;1.905021;3.940971;4.736541;;;;
467;2.328329;1.923729;3.941599;4.671009;;;;
468;2.269206;1.841046;3.673726;4.490666;;;;
469;1.903506;1.770056;3.365496;4.064296;;;;
470;1.9501;1.67533;3.24619;3.9889;;;;
471;1.890941;1.668711;3.101831;3.877261;;;;
472;1.738127;1.411097;3.050287;3.504727;;;;
473;1.732224;1.349554;2.684094;3.440384;;;;
474;1.750334;1.208514;2.575854;3.355364;;;;
475;1.478049;1.266399;2.492889;3.131109;;;;
476;1.459778;1.166328;2.363598;3.001338;;;;
477;1.440467;1.116847;2.318357;2.865237;;;;
478;1.299841;1.131141;2.115921;2.796951;;;;
479;1.186192;1.038082;1.998432;2.589292;;;;
480;1.15886;1.08609;1.96483;2.61989;;;;
481;1.207284;0.873554;1.847354;2.416084;;;;
482;1.082377;0.870257;1.746967;2.316097;;;;
483;1.096154;0.808094;1.630424;2.305194;;;;
484;0.997785;0.795935;1.618815;2.140305;;;;
485;0.968951;0.735921;1.453431;2.054681;;;;
486;0.958183;0.795653;1.481923;2.062013;;;;
487;0.89721;0.70794;1.45309;1.94467;;;;
488;0.91417;0.616979;1.34308;1.91207;;;;
489;0.847427;0.634486;1.248057;1.847217;;;;
490;0.816882;0.641112;1.127032;1.867382;;;;
491;0.724895;0.576052;1.237625;1.651435;;;;
492;0.807908;0.526959;1.130138;1.729638;;;;
493;0.713767;0.57191;1.142567;1.620037;;;;
494;0.786393;0.609877;1.131563;1.727293;;;;
495;0.678432;0.495624;1.103902;1.521862;;;;
496;0.612441;0.490274;1.001547;1.432597;;;;
497;0.681879;0.393487;1.010919;1.414949;;;;
498;0.588997;0.470916;1.0041;1.42173;;;;
499;0.66916;0.525562;0.887697;1.524507;;;;
500;0.499279;0.384346;0.854558;1.246638;;;;
